Ben_Ni_20190508-190020_50de08_0001_dark_corrected_img.tiff: Q-Space Scan
Q (Inverse Nanometres)
Intensity
       1480
 1.1376048E-02  0.0000000E+00
 3.4128144E-02  0.0000000E+00
 5.6880243E-02  0.0000000E+00
 7.9632342E-02  0.0000000E+00
 1.0238443E-01  0.0000000E+00
 1.2513654E-01  0.0000000E+00
 1.4788863E-01  0.0000000E+00
 1.7064072E-01  0.0000000E+00
 1.9339283E-01  0.0000000E+00
 2.1614492E-01  0.0000000E+00
 2.3889701E-01  0.0000000E+00
 2.6164910E-01  0.0000000E+00
 2.8440121E-01  0.0000000E+00
 3.0715331E-01  0.0000000E+00
 3.2990539E-01  0.0000000E+00
 3.5265750E-01  0.0000000E+00
 3.7540960E-01  0.0000000E+00
 3.9816171E-01  0.0000000E+00
 4.2091379E-01  0.0000000E+00
 4.4366589E-01  0.0000000E+00
 4.6641800E-01  0.0000000E+00
 4.8917007E-01  0.0000000E+00
 5.1192218E-01  0.0000000E+00
 5.3467429E-01  0.0000000E+00
 5.5742639E-01  0.0000000E+00
 5.8017850E-01  0.0000000E+00
 6.0293055E-01  0.0000000E+00
 6.2568265E-01  0.0000000E+00
 6.4843476E-01  0.0000000E+00
 6.7118686E-01  0.0000000E+00
 6.9393897E-01  0.0000000E+00
 7.1669108E-01  0.0000000E+00
 7.3944312E-01  0.0000000E+00
 7.6219523E-01  0.0000000E+00
 7.8494734E-01  0.0000000E+00
 8.0769944E-01  0.0000000E+00
 8.3045155E-01  0.0000000E+00
 8.5320365E-01  0.0000000E+00
 8.7595570E-01  0.0000000E+00
 8.9870781E-01  0.0000000E+00
 9.2145991E-01  0.0000000E+00
 9.4421202E-01  0.0000000E+00
 9.6696413E-01  0.0000000E+00
 9.8971623E-01  0.0000000E+00
 1.0124683E+00  0.0000000E+00
 1.0352204E+00  0.0000000E+00
 1.0579726E+00  0.0000000E+00
 1.0807246E+00  0.0000000E+00
 1.1034766E+00  0.0000000E+00
 1.1262288E+00  0.0000000E+00
 1.1489809E+00  0.0000000E+00
 1.1717330E+00  6.9533752E+01
 1.1944851E+00  6.8431023E+01
 1.2172372E+00  6.6715622E+01
 1.2399893E+00  6.6721382E+01
 1.2627413E+00  6.6176071E+01
 1.2854935E+00  6.4163498E+01
 1.3082455E+00  6.3448689E+01
 1.3309977E+00  6.3514343E+01
 1.3537498E+00  6.1806984E+01
 1.3765019E+00  6.1500885E+01
 1.3992540E+00  6.0721493E+01
 1.4220060E+00  5.9596180E+01
 1.4447582E+00  5.8497162E+01
 1.4675102E+00  5.7795731E+01
 1.4902624E+00  5.6750587E+01
 1.5130144E+00  5.6189041E+01
 1.5357665E+00  5.5344128E+01
 1.5585186E+00  5.4547787E+01
 1.5812707E+00  5.3603607E+01
 1.6040229E+00  5.2519173E+01
 1.6267749E+00  5.1762833E+01
 1.6495271E+00  5.0924141E+01
 1.6722791E+00  5.0513309E+01
 1.6950312E+00  4.9805557E+01
 1.7177833E+00  4.8590672E+01
 1.7405354E+00  4.7953514E+01
 1.7632875E+00  4.7657475E+01
 1.7860396E+00  4.7398628E+01
 1.8087918E+00  4.7012890E+01
 1.8315438E+00  4.6530502E+01
 1.8542958E+00  4.5759674E+01
 1.8770480E+00  4.5322800E+01
 1.8998001E+00  4.4280888E+01
 1.9225522E+00  4.4201168E+01
 1.9453043E+00  4.3123131E+01
 1.9680563E+00  4.2877785E+01
 1.9908085E+00  4.2174076E+01
 2.0135605E+00  4.1187981E+01
 2.0363126E+00  4.0289185E+01
 2.0590649E+00  4.0142014E+01
 2.0818169E+00  3.9559181E+01
 2.1045690E+00  3.9242111E+01
 2.1273210E+00  3.8790398E+01
 2.1500731E+00  3.8327892E+01
 2.1728253E+00  3.7911667E+01
 2.1955774E+00  3.7274624E+01
 2.2183294E+00  3.7078743E+01
 2.2410815E+00  3.6250431E+01
 2.2638335E+00  3.5927204E+01
 2.2865858E+00  3.5493477E+01
 2.3093379E+00  3.5424511E+01
 2.3320899E+00  3.5444790E+01
 2.3548419E+00  3.5121090E+01
 2.3775942E+00  3.5016888E+01
 2.4003463E+00  3.4491928E+01
 2.4230983E+00  3.4720654E+01
 2.4458504E+00  3.4459812E+01
 2.4686024E+00  3.4218483E+01
 2.4913547E+00  3.4215916E+01
 2.5141068E+00  3.4182426E+01
 2.5368588E+00  3.3941071E+01
 2.5596108E+00  3.3585514E+01
 2.5823629E+00  3.3748116E+01
 2.6051152E+00  3.3945496E+01
 2.6278672E+00  3.3944763E+01
 2.6506193E+00  3.3878468E+01
 2.6733713E+00  3.3506077E+01
 2.6961234E+00  3.3709579E+01
 2.7188756E+00  3.3646549E+01
 2.7416277E+00  3.3857563E+01
 2.7643797E+00  3.3614090E+01
 2.7871318E+00  3.3748268E+01
 2.8098841E+00  3.3988338E+01
 2.8326361E+00  3.3935978E+01
 2.8553882E+00  3.4103767E+01
 2.8781402E+00  3.4614128E+01
 2.9008923E+00  3.5182621E+01
 2.9236445E+00  3.5911274E+01
 2.9463966E+00  3.7838970E+01
 2.9691486E+00  4.1588993E+01
 2.9919007E+00  5.1195858E+01
 3.0146527E+00  7.9582619E+01
 3.0374050E+00  1.6520395E+02
 3.0601571E+00  3.6822714E+02
 3.0829091E+00  5.7306641E+02
 3.1056612E+00  5.0499841E+02
 3.1284134E+00  2.6302911E+02
 3.1511655E+00  1.1495944E+02
 3.1739175E+00  6.2911930E+01
 3.1966696E+00  4.5684753E+01
 3.2194216E+00  3.9689430E+01
 3.2421739E+00  3.6689056E+01
 3.2649260E+00  3.5493408E+01
 3.2876780E+00  3.4727314E+01
 3.3104300E+00  3.4246471E+01
 3.3331821E+00  3.3693966E+01
 3.3559344E+00  3.3702831E+01
 3.3786864E+00  3.3590832E+01
 3.4014385E+00  3.3716736E+01
 3.4241905E+00  3.4351303E+01
 3.4469426E+00  3.6283257E+01
 3.4696949E+00  4.0675694E+01
 3.4924469E+00  5.4445591E+01
 3.5151989E+00  9.6769737E+01
 3.5379510E+00  1.9415863E+02
 3.5607033E+00  2.9405261E+02
 3.5834553E+00  2.6279816E+02
 3.6062074E+00  1.4428659E+02
 3.6289594E+00  7.0477859E+01
 3.6517115E+00  4.4589924E+01
 3.6744637E+00  3.6164734E+01
 3.6972158E+00  3.3083027E+01
 3.7199678E+00  3.1400951E+01
 3.7427199E+00  3.0934196E+01
 3.7654719E+00  3.0408886E+01
 3.7882242E+00  3.0171869E+01
 3.8109763E+00  2.9945757E+01
 3.8337283E+00  3.0040972E+01
 3.8564804E+00  2.9753428E+01
 3.8792324E+00  2.9769382E+01
 3.9019847E+00  2.9400391E+01
 3.9247367E+00  2.9305479E+01
 3.9474888E+00  2.9140329E+01
 3.9702408E+00  2.9056423E+01
 3.9929931E+00  2.8949272E+01
 4.0157452E+00  2.9085608E+01
 4.0384970E+00  2.9011574E+01
 4.0612493E+00  2.8863705E+01
 4.0840015E+00  2.8577084E+01
 4.1067533E+00  2.8494528E+01
 4.1295056E+00  2.8465513E+01
 4.1522574E+00  2.8463673E+01
 4.1750097E+00  2.8620155E+01
 4.1977620E+00  2.8544615E+01
 4.2205138E+00  2.8415121E+01
 4.2432661E+00  2.8467905E+01
 4.2660184E+00  2.8562410E+01
 4.2887702E+00  2.8385872E+01
 4.3115225E+00  2.8208994E+01
 4.3342743E+00  2.8329742E+01
 4.3570266E+00  2.8272287E+01
 4.3797789E+00  2.8105394E+01
 4.4025307E+00  2.8097160E+01
 4.4252830E+00  2.8182852E+01
 4.4480348E+00  2.8158159E+01
 4.4707870E+00  2.8013906E+01
 4.4935393E+00  2.8076532E+01
 4.5162911E+00  2.8113907E+01
 4.5390434E+00  2.8075342E+01
 4.5617952E+00  2.8027925E+01
 4.5845475E+00  2.7709011E+01
 4.6072998E+00  2.7905729E+01
 4.6300516E+00  2.7901125E+01
 4.6528039E+00  2.7952644E+01
 4.6755557E+00  2.8082594E+01
 4.6983080E+00  2.8155537E+01
 4.7210603E+00  2.8108498E+01
 4.7438121E+00  2.8352787E+01
 4.7665644E+00  2.8421938E+01
 4.7893162E+00  2.8488813E+01
 4.8120685E+00  2.8506134E+01
 4.8348207E+00  2.8731308E+01
 4.8575726E+00  2.9044987E+01
 4.8803248E+00  2.9199142E+01
 4.9030766E+00  2.9762733E+01
 4.9258289E+00  3.1037222E+01
 4.9485812E+00  3.4068039E+01
 4.9713330E+00  4.3769672E+01
 4.9940853E+00  7.1827385E+01
 5.0168376E+00  1.3433156E+02
 5.0395894E+00  1.9319302E+02
 5.0623417E+00  1.7016092E+02
 5.0850935E+00  9.7767494E+01
 5.1078458E+00  5.2868587E+01
 5.1305981E+00  3.7406300E+01
 5.1533499E+00  3.2257500E+01
 5.1761022E+00  3.0378706E+01
 5.1988540E+00  2.9627718E+01
 5.2216063E+00  2.9245667E+01
 5.2443585E+00  2.8798025E+01
 5.2671103E+00  2.8585894E+01
 5.2898626E+00  2.8693279E+01
 5.3126144E+00  2.8382784E+01
 5.3353667E+00  2.8350609E+01
 5.3581190E+00  2.8238329E+01
 5.3808708E+00  2.7988008E+01
 5.4036231E+00  2.7853281E+01
 5.4263749E+00  2.7870657E+01
 5.4491272E+00  2.7830509E+01
 5.4718795E+00  2.7813166E+01
 5.4946313E+00  2.7764111E+01
 5.5173836E+00  2.7892525E+01
 5.5401354E+00  2.7610817E+01
 5.5628877E+00  2.7627605E+01
 5.5856400E+00  2.7642857E+01
 5.6083918E+00  2.7595053E+01
 5.6311440E+00  2.7621841E+01
 5.6538959E+00  2.7658373E+01
 5.6766481E+00  2.7848698E+01
 5.6994004E+00  2.7864035E+01
 5.7221522E+00  2.8041059E+01
 5.7449045E+00  2.8047377E+01
 5.7676563E+00  2.8690369E+01
 5.7904086E+00  2.9806231E+01
 5.8131609E+00  3.2206089E+01
 5.8359127E+00  3.9670277E+01
 5.8586650E+00  6.1767288E+01
 5.8814173E+00  1.1605372E+02
 5.9041691E+00  1.8689899E+02
 5.9269214E+00  1.9133221E+02
 5.9496732E+00  1.1995157E+02
 5.9724255E+00  6.2092457E+01
 5.9951777E+00  3.9340153E+01
 6.0179296E+00  3.2008545E+01
 6.0406818E+00  2.9703793E+01
 6.0634336E+00  2.9019283E+01
 6.0861859E+00  2.9458530E+01
 6.1089382E+00  3.2691849E+01
 6.1316900E+00  4.2337578E+01
 6.1544423E+00  6.1667316E+01
 6.1771941E+00  7.6286980E+01
 6.1999464E+00  6.4503822E+01
 6.2226987E+00  4.3239685E+01
 6.2454505E+00  3.2071350E+01
 6.2682028E+00  2.8247892E+01
 6.2909546E+00  2.6837902E+01
 6.3137069E+00  2.6194471E+01
 6.3364592E+00  2.5836084E+01
 6.3592110E+00  2.5644220E+01
 6.3819633E+00  2.5363308E+01
 6.4047151E+00  2.5131481E+01
 6.4274673E+00  2.5091324E+01
 6.4502196E+00  2.4954285E+01
 6.4729714E+00  2.4756006E+01
 6.4957237E+00  2.4710442E+01
 6.5184755E+00  2.4660414E+01
 6.5412278E+00  2.4535076E+01
 6.5639801E+00  2.4416851E+01
 6.5867319E+00  2.4519409E+01
 6.6094842E+00  2.4390200E+01
 6.6322360E+00  2.4408583E+01
 6.6549883E+00  2.4395136E+01
 6.6777406E+00  2.4344564E+01
 6.7004924E+00  2.4062231E+01
 6.7232447E+00  2.3981512E+01
 6.7459970E+00  2.3920303E+01
 6.7687488E+00  2.3810406E+01
 6.7915010E+00  2.3726574E+01
 6.8142529E+00  2.3737562E+01
 6.8370051E+00  2.3713493E+01
 6.8597574E+00  2.3736954E+01
 6.8825092E+00  2.3411247E+01
 6.9052615E+00  2.3479025E+01
 6.9280133E+00  2.3486097E+01
 6.9507656E+00  2.3545311E+01
 6.9735179E+00  2.3427801E+01
 6.9962697E+00  2.3454018E+01
 7.0190220E+00  2.3682131E+01
 7.0417738E+00  2.4126251E+01
 7.0645261E+00  2.5220747E+01
 7.0872784E+00  2.9057123E+01
 7.1100302E+00  3.6220333E+01
 7.1327825E+00  4.1827179E+01
 7.1555343E+00  3.8166733E+01
 7.1782866E+00  3.0095900E+01
 7.2010388E+00  2.5578768E+01
 7.2237906E+00  2.4056656E+01
 7.2465429E+00  2.3366396E+01
 7.2692947E+00  2.3078199E+01
 7.2920470E+00  2.2838867E+01
 7.3147993E+00  2.2747633E+01
 7.3375511E+00  2.2805506E+01
 7.3603034E+00  2.2687740E+01
 7.3830552E+00  2.2848644E+01
 7.4058075E+00  2.2950298E+01
 7.4285598E+00  2.2772882E+01
 7.4513116E+00  2.2810553E+01
 7.4740639E+00  2.2963226E+01
 7.4968162E+00  2.2965635E+01
 7.5195680E+00  2.2863062E+01
 7.5423203E+00  2.2921406E+01
 7.5650721E+00  2.2878563E+01
 7.5878243E+00  2.3008509E+01
 7.6105766E+00  2.3244223E+01
 7.6333284E+00  2.3420944E+01
 7.6560807E+00  2.3920252E+01
 7.6788325E+00  2.4877914E+01
 7.7015848E+00  2.7882500E+01
 7.7243371E+00  3.6886776E+01
 7.7470889E+00  5.6545170E+01
 7.7698412E+00  7.4654701E+01
 7.7925930E+00  6.8118698E+01
 7.8153453E+00  4.5671364E+01
 7.8380976E+00  3.1676395E+01
 7.8608494E+00  2.6607897E+01
 7.8836017E+00  2.5917896E+01
 7.9063535E+00  2.8306217E+01
 7.9291058E+00  3.7298435E+01
 7.9518580E+00  5.5130131E+01
 7.9746099E+00  6.9011040E+01
 7.9973621E+00  5.9888554E+01
 8.0201139E+00  3.9925095E+01
 8.0428667E+00  2.8595251E+01
 8.0656185E+00  2.4589102E+01
 8.0883703E+00  2.3195553E+01
 8.1111221E+00  2.2472294E+01
 8.1338749E+00  2.2031998E+01
 8.1566267E+00  2.1863111E+01
 8.1793785E+00  2.1842876E+01
 8.2021313E+00  2.1683353E+01
 8.2248831E+00  2.1674559E+01
 8.2476349E+00  2.1646442E+01
 8.2703876E+00  2.1416080E+01
 8.2931395E+00  2.1304564E+01
 8.3158913E+00  2.1065016E+01
 8.3386431E+00  2.1135506E+01
 8.3613958E+00  2.1119482E+01
 8.3841476E+00  2.1110950E+01
 8.4068995E+00  2.0992558E+01
 8.4296522E+00  2.0998831E+01
 8.4524040E+00  2.0928213E+01
 8.4751558E+00  2.0971975E+01
 8.4979086E+00  2.0972345E+01
 8.5206604E+00  2.0762148E+01
 8.5434122E+00  2.0775139E+01
 8.5661640E+00  2.0755810E+01
 8.5889168E+00  2.0818426E+01
 8.6116686E+00  2.1157413E+01
 8.6344204E+00  2.1417400E+01
 8.6571732E+00  2.2810446E+01
 8.6799250E+00  2.6618650E+01
 8.7026768E+00  3.5837109E+01
 8.7254295E+00  4.8269360E+01
 8.7481813E+00  5.0404408E+01
 8.7709332E+00  3.8347366E+01
 8.7936859E+00  2.7342628E+01
 8.8164377E+00  2.2574202E+01
 8.8391895E+00  2.1064522E+01
 8.8619413E+00  2.0725588E+01
 8.8846941E+00  2.0337854E+01
 8.9074459E+00  2.0105639E+01
 8.9301977E+00  2.0033318E+01
 8.9529505E+00  2.0003571E+01
 8.9757023E+00  2.0002831E+01
 8.9984541E+00  1.9796951E+01
 9.0212069E+00  1.9637020E+01
 9.0439587E+00  1.9756897E+01
 9.0667105E+00  1.9642412E+01
 9.0894623E+00  1.9592484E+01
 9.1122150E+00  1.9567617E+01
 9.1349669E+00  1.9793520E+01
 9.1577187E+00  2.0044212E+01
 9.1804714E+00  2.0803001E+01
 9.2032232E+00  2.3443209E+01
 9.2259750E+00  3.0905399E+01
 9.2487278E+00  4.3543427E+01
 9.2714796E+00  5.0221401E+01
 9.2942314E+00  4.1255119E+01
 9.3169832E+00  2.8748480E+01
 9.3397360E+00  2.2356239E+01
 9.3624878E+00  2.0051891E+01
 9.3852396E+00  1.9239462E+01
 9.4079924E+00  1.8847132E+01
 9.4307442E+00  1.8714842E+01
 9.4534960E+00  1.8583031E+01
 9.4762487E+00  1.8515162E+01
 9.4990005E+00  1.8332817E+01
 9.5217524E+00  1.8250292E+01
 9.5445042E+00  1.8178446E+01
 9.5672569E+00  1.8089264E+01
 9.5900087E+00  1.8060902E+01
 9.6127605E+00  1.7952080E+01
 9.6355133E+00  1.7857111E+01
 9.6582651E+00  1.7861231E+01
 9.6810169E+00  1.7744652E+01
 9.7037697E+00  1.7881552E+01
 9.7265215E+00  1.7687851E+01
 9.7492733E+00  1.7649868E+01
 9.7720261E+00  1.7519323E+01
 9.7947779E+00  1.7423969E+01
 9.8175297E+00  1.7584436E+01
 9.8402815E+00  1.7539795E+01
 9.8630342E+00  1.7465540E+01
 9.8857861E+00  1.7428926E+01
 9.9085379E+00  1.7450117E+01
 9.9312906E+00  1.7340002E+01
 9.9540424E+00  1.7528929E+01
 9.9767942E+00  1.7586176E+01
 9.9995470E+00  1.7562834E+01
 1.0022299E+01  1.8158625E+01
 1.0045051E+01  1.9725771E+01
 1.0067802E+01  2.2706341E+01
 1.0090555E+01  2.4795061E+01
 1.0113307E+01  2.3151979E+01
 1.0136059E+01  2.0017599E+01
 1.0158812E+01  1.8118908E+01
 1.0181563E+01  1.7508186E+01
 1.0204315E+01  1.7315409E+01
 1.0227068E+01  1.7270935E+01
 1.0249820E+01  1.7216383E+01
 1.0272572E+01  1.7086935E+01
 1.0295323E+01  1.7039297E+01
 1.0318076E+01  1.7121237E+01
 1.0340828E+01  1.7070059E+01
 1.0363580E+01  1.7151218E+01
 1.0386333E+01  1.7191381E+01
 1.0409084E+01  1.7181770E+01
 1.0431836E+01  1.7374996E+01
 1.0454589E+01  1.7849447E+01
 1.0477341E+01  1.9463562E+01
 1.0500093E+01  2.3008360E+01
 1.0522845E+01  3.1323584E+01
 1.0545597E+01  4.0196461E+01
 1.0568349E+01  3.8962193E+01
 1.0591101E+01  2.9084530E+01
 1.0613853E+01  2.2150911E+01
 1.0636605E+01  2.0448597E+01
 1.0659357E+01  2.2672163E+01
 1.0682110E+01  2.8041597E+01
 1.0704862E+01  3.1360079E+01
 1.0727613E+01  2.7575041E+01
 1.0750366E+01  2.1553576E+01
 1.0773118E+01  1.8232244E+01
 1.0795870E+01  1.6981375E+01
 1.0818622E+01  1.6595207E+01
 1.0841374E+01  1.6447300E+01
 1.0864126E+01  1.6320620E+01
 1.0886878E+01  1.6159792E+01
 1.0909631E+01  1.6189526E+01
 1.0932383E+01  1.6110380E+01
 1.0955134E+01  1.6078560E+01
 1.0977887E+01  1.5919798E+01
 1.1000639E+01  1.5872368E+01
 1.1023391E+01  1.5693090E+01
 1.1046143E+01  1.5643074E+01
 1.1068895E+01  1.5551761E+01
 1.1091647E+01  1.5570624E+01
 1.1114399E+01  1.5552436E+01
 1.1137152E+01  1.5448939E+01
 1.1159904E+01  1.5422448E+01
 1.1182655E+01  1.5607796E+01
 1.1205408E+01  1.6260260E+01
 1.1228160E+01  1.7447615E+01
 1.1250912E+01  2.0303017E+01
 1.1273664E+01  2.3479326E+01
 1.1296416E+01  2.2959150E+01
 1.1319168E+01  1.9497240E+01
 1.1341920E+01  1.6802036E+01
 1.1364673E+01  1.5619040E+01
 1.1387424E+01  1.5236591E+01
 1.1410176E+01  1.5097200E+01
 1.1432929E+01  1.4964529E+01
 1.1455681E+01  1.4905291E+01
 1.1478433E+01  1.4976652E+01
 1.1501185E+01  1.4895786E+01
 1.1523937E+01  1.4861154E+01
 1.1546689E+01  1.4803601E+01
 1.1569441E+01  1.4819121E+01
 1.1592194E+01  1.4911109E+01
 1.1614945E+01  1.5107308E+01
 1.1637697E+01  1.5956525E+01
 1.1660450E+01  1.7976547E+01
 1.1683202E+01  2.0792555E+01
 1.1705954E+01  2.1652756E+01
 1.1728706E+01  1.9198391E+01
 1.1751458E+01  1.6839424E+01
 1.1774210E+01  1.6466431E+01
 1.1796962E+01  1.8114355E+01
 1.1819715E+01  2.0625734E+01
 1.1842466E+01  2.1052765E+01
 1.1865218E+01  1.8484001E+01
 1.1887971E+01  1.5978543E+01
 1.1910723E+01  1.4769479E+01
 1.1933475E+01  1.4346839E+01
 1.1956227E+01  1.4062002E+01
 1.1978979E+01  1.4103259E+01
 1.2001731E+01  1.3897039E+01
 1.2024483E+01  1.3759760E+01
 1.2047235E+01  1.3842596E+01
 1.2069987E+01  1.3727706E+01
 1.2092739E+01  1.3702798E+01
 1.2115492E+01  1.3757372E+01
 1.2138244E+01  1.3790945E+01
 1.2160995E+01  1.3602173E+01
 1.2183748E+01  1.3539625E+01
 1.2206500E+01  1.3631162E+01
 1.2229252E+01  1.3585812E+01
 1.2252005E+01  1.3590752E+01
 1.2274756E+01  1.3570493E+01
 1.2297508E+01  1.3714110E+01
 1.2320260E+01  1.4304888E+01
 1.2343013E+01  1.4965765E+01
 1.2365765E+01  1.5268099E+01
 1.2388516E+01  1.4571960E+01
 1.2411269E+01  1.3880692E+01
 1.2434021E+01  1.3620352E+01
 1.2456773E+01  1.3301991E+01
 1.2479526E+01  1.3189136E+01
 1.2502277E+01  1.3237647E+01
 1.2525029E+01  1.3405039E+01
 1.2547781E+01  1.3341154E+01
 1.2570534E+01  1.3385142E+01
 1.2593286E+01  1.3273827E+01
 1.2616037E+01  1.3366950E+01
 1.2638790E+01  1.3539289E+01
 1.2661542E+01  1.3977176E+01
 1.2684294E+01  1.5165311E+01
 1.2707047E+01  1.8175743E+01
 1.2729798E+01  2.1693913E+01
 1.2752550E+01  2.1952770E+01
 1.2775302E+01  1.8589304E+01
 1.2798055E+01  1.5709805E+01
 1.2820807E+01  1.5372602E+01
 1.2843558E+01  1.6642221E+01
 1.2866311E+01  1.7600008E+01
 1.2889063E+01  1.6346327E+01
 1.2911815E+01  1.4506275E+01
 1.2934567E+01  1.3507049E+01
 1.2957319E+01  1.3073298E+01
 1.2980071E+01  1.2941661E+01
 1.3002824E+01  1.2810850E+01
 1.3025576E+01  1.2818371E+01
 1.3048327E+01  1.2871160E+01
 1.3071079E+01  1.2695335E+01
 1.3093832E+01  1.2633489E+01
 1.3116584E+01  1.2747880E+01
 1.3139336E+01  1.2691556E+01
 1.3162088E+01  1.2682430E+01
 1.3184840E+01  1.2657867E+01
 1.3207592E+01  1.2576054E+01
 1.3230345E+01  1.2665686E+01
 1.3253097E+01  1.2865434E+01
 1.3275848E+01  1.3317537E+01
 1.3298600E+01  1.4438221E+01
 1.3321353E+01  1.6963476E+01
 1.3344105E+01  1.9429686E+01
 1.3366857E+01  1.8869415E+01
 1.3389609E+01  1.6045813E+01
 1.3412361E+01  1.3826661E+01
 1.3435113E+01  1.2815299E+01
 1.3457866E+01  1.2591825E+01
 1.3480618E+01  1.2342498E+01
 1.3503369E+01  1.2344607E+01
 1.3526121E+01  1.2413093E+01
 1.3548874E+01  1.2407147E+01
 1.3571626E+01  1.2309141E+01
 1.3594378E+01  1.2512862E+01
 1.3617130E+01  1.2824012E+01
 1.3639882E+01  1.3715019E+01
 1.3662634E+01  1.6050852E+01
 1.3685387E+01  1.9675133E+01
 1.3708138E+01  2.1423143E+01
 1.3730890E+01  1.8763260E+01
 1.3753643E+01  1.4996182E+01
 1.3776395E+01  1.3049730E+01
 1.3799147E+01  1.2235929E+01
 1.3821898E+01  1.2068149E+01
 1.3844651E+01  1.1842837E+01
 1.3867403E+01  1.1732823E+01
 1.3890155E+01  1.1671337E+01
 1.3912908E+01  1.1732694E+01
 1.3935659E+01  1.1596699E+01
 1.3958411E+01  1.1574019E+01
 1.3981164E+01  1.1466286E+01
 1.4003916E+01  1.1554230E+01
 1.4026668E+01  1.1440015E+01
 1.4049419E+01  1.1462606E+01
 1.4072172E+01  1.1397169E+01
 1.4094924E+01  1.1261395E+01
 1.4117676E+01  1.1369308E+01
 1.4140429E+01  1.1285380E+01
 1.4163180E+01  1.1303260E+01
 1.4185932E+01  1.1246181E+01
 1.4208685E+01  1.1202585E+01
 1.4231437E+01  1.1498801E+01
 1.4254189E+01  1.1776216E+01
 1.4276940E+01  1.1729159E+01
 1.4299693E+01  1.1419912E+01
 1.4322445E+01  1.1189669E+01
 1.4345197E+01  1.1092110E+01
 1.4367949E+01  1.1132195E+01
 1.4390701E+01  1.1055177E+01
 1.4413453E+01  1.1044044E+01
 1.4436206E+01  1.0953037E+01
 1.4458958E+01  1.1003057E+01
 1.4481709E+01  1.1015284E+01
 1.4504461E+01  1.1064779E+01
 1.4527214E+01  1.1138138E+01
 1.4549966E+01  1.1548592E+01
 1.4572718E+01  1.2228206E+01
 1.4595470E+01  1.3046964E+01
 1.4618222E+01  1.3087007E+01
 1.4640974E+01  1.2489872E+01
 1.4663727E+01  1.2532799E+01
 1.4686479E+01  1.3740206E+01
 1.4709230E+01  1.4946208E+01
 1.4731983E+01  1.4399465E+01
 1.4754735E+01  1.2621565E+01
 1.4777487E+01  1.1507076E+01
 1.4800239E+01  1.1015761E+01
 1.4822991E+01  1.0836150E+01
 1.4845743E+01  1.0688607E+01
 1.4868495E+01  1.0632069E+01
 1.4891248E+01  1.0714371E+01
 1.4914000E+01  1.0673587E+01
 1.4936751E+01  1.0622686E+01
 1.4959504E+01  1.0606722E+01
 1.4982256E+01  1.0581381E+01
 1.5005008E+01  1.0582479E+01
 1.5027760E+01  1.0518312E+01
 1.5050512E+01  1.0610435E+01
 1.5073264E+01  1.0850058E+01
 1.5096016E+01  1.1520653E+01
 1.5118769E+01  1.2425413E+01
 1.5141521E+01  1.3005065E+01
 1.5164272E+01  1.2500113E+01
 1.5187025E+01  1.1395747E+01
 1.5209777E+01  1.0780735E+01
 1.5232529E+01  1.0659040E+01
 1.5255280E+01  1.0543821E+01
 1.5278033E+01  1.0495550E+01
 1.5300785E+01  1.0435196E+01
 1.5323537E+01  1.0372508E+01
 1.5346290E+01  1.0507858E+01
 1.5369041E+01  1.0636075E+01
 1.5391793E+01  1.1022914E+01
 1.5414546E+01  1.2080470E+01
 1.5437298E+01  1.3524497E+01
 1.5460050E+01  1.3927642E+01
 1.5482802E+01  1.2879869E+01
 1.5505554E+01  1.1716233E+01
 1.5528306E+01  1.1638890E+01
 1.5551058E+01  1.1798820E+01
 1.5573811E+01  1.1557716E+01
 1.5596562E+01  1.0827199E+01
 1.5619314E+01  1.0376605E+01
 1.5642067E+01  1.0191236E+01
 1.5664819E+01  1.0158731E+01
 1.5687571E+01  1.0027976E+01
 1.5710323E+01  1.0012595E+01
 1.5733075E+01  9.9534159E+00
 1.5755827E+01  9.8494177E+00
 1.5778579E+01  9.8998585E+00
 1.5801332E+01  9.8961258E+00
 1.5824083E+01  9.8983402E+00
 1.5846835E+01  9.8743696E+00
 1.5869588E+01  9.9207144E+00
 1.5892340E+01  1.0027476E+01
 1.5915092E+01  1.0263777E+01
 1.5937844E+01  1.0741998E+01
 1.5960596E+01  1.0887454E+01
 1.5983348E+01  1.0706984E+01
 1.6006100E+01  1.0270974E+01
 1.6028852E+01  9.8456497E+00
 1.6051605E+01  9.7891893E+00
 1.6074356E+01  9.7614918E+00
 1.6097109E+01  9.6921072E+00
 1.6119860E+01  9.8121252E+00
 1.6142612E+01  9.8543472E+00
 1.6165365E+01  9.9348192E+00
 1.6188116E+01  1.0090335E+01
 1.6210869E+01  1.0853357E+01
 1.6233622E+01  1.2109567E+01
 1.6256372E+01  1.3074769E+01
 1.6279125E+01  1.2558842E+01
 1.6301878E+01  1.1521877E+01
 1.6324629E+01  1.1424162E+01
 1.6347382E+01  1.1836514E+01
 1.6370134E+01  1.1516144E+01
 1.6392885E+01  1.0678705E+01
 1.6415638E+01  1.0015051E+01
 1.6438391E+01  9.6316557E+00
 1.6461142E+01  9.6185179E+00
 1.6483894E+01  9.4173841E+00
 1.6506647E+01  9.3231688E+00
 1.6529398E+01  9.3217897E+00
 1.6552151E+01  9.2943897E+00
 1.6574903E+01  9.2766819E+00
 1.6597654E+01  9.1975746E+00
 1.6620407E+01  9.1882687E+00
 1.6643158E+01  9.2376165E+00
 1.6665911E+01  9.2404604E+00
 1.6688663E+01  9.4218712E+00
 1.6711414E+01  9.6902552E+00
 1.6734167E+01  1.0096336E+01
 1.6756920E+01  9.8829432E+00
 1.6779671E+01  9.6316767E+00
 1.6802423E+01  9.3404894E+00
 1.6825176E+01  9.1014853E+00
 1.6847927E+01  9.1066322E+00
 1.6870680E+01  9.0118065E+00
 1.6893433E+01  8.9221201E+00
 1.6916183E+01  8.9324207E+00
 1.6938936E+01  9.0837164E+00
 1.6961689E+01  9.2310944E+00
 1.6984440E+01  9.6377869E+00
 1.7007193E+01  1.0203149E+01
 1.7029945E+01  1.0323639E+01
 1.7052696E+01  9.9231348E+00
 1.7075449E+01  9.4238682E+00
 1.7098202E+01  8.9076748E+00
 1.7120953E+01  8.8386078E+00
 1.7143705E+01  8.8488998E+00
 1.7166456E+01  8.7465849E+00
 1.7189209E+01  8.7683306E+00
 1.7211962E+01  8.8050337E+00
 1.7234713E+01  8.7457819E+00
 1.7257465E+01  8.7398481E+00
 1.7280218E+01  8.6923532E+00
 1.7302969E+01  8.6298199E+00
 1.7325722E+01  8.6439886E+00
 1.7348475E+01  8.5982895E+00
 1.7371225E+01  8.5422363E+00
 1.7393978E+01  8.6939726E+00
 1.7416731E+01  8.6741333E+00
 1.7439482E+01  8.8113289E+00
 1.7462234E+01  9.0201006E+00
 1.7484987E+01  9.3048058E+00
 1.7507738E+01  9.1951962E+00
 1.7530491E+01  8.9469767E+00
 1.7553244E+01  8.6975145E+00
 1.7575994E+01  8.6439962E+00
 1.7598747E+01  8.5937071E+00
 1.7621498E+01  8.6358805E+00
 1.7644251E+01  8.4610424E+00
 1.7667004E+01  8.7204275E+00
 1.7689754E+01  8.7284365E+00
 1.7712507E+01  9.1794930E+00
 1.7735260E+01  9.9889774E+00
 1.7758011E+01  1.0340086E+01
 1.7780764E+01  9.9641581E+00
 1.7803516E+01  9.4994564E+00
 1.7826267E+01  9.3490667E+00
 1.7849020E+01  9.3153524E+00
 1.7871773E+01  9.0099554E+00
 1.7894524E+01  8.6670589E+00
 1.7917276E+01  8.4673300E+00
 1.7940029E+01  8.3931904E+00
 1.7962780E+01  8.2501411E+00
 1.7985533E+01  8.3678894E+00
 1.8008286E+01  8.3562326E+00
 1.8031036E+01  8.4015503E+00
 1.8053789E+01  8.2865734E+00
 1.8076542E+01  8.2285986E+00
 1.8099293E+01  8.3316565E+00
 1.8122046E+01  8.3406925E+00
 1.8144796E+01  8.5334101E+00
 1.8167549E+01  9.0509672E+00
 1.8190302E+01  9.7100763E+00
 1.8213053E+01  9.6777115E+00
 1.8235806E+01  9.0567617E+00
 1.8258558E+01  8.4578676E+00
 1.8281309E+01  8.3478289E+00
 1.8304062E+01  8.1932869E+00
 1.8326815E+01  8.1687860E+00
 1.8349566E+01  8.2490053E+00
 1.8372318E+01  8.2613640E+00
 1.8395071E+01  8.3432493E+00
 1.8417822E+01  8.6059399E+00
 1.8440575E+01  9.1548157E+00
 1.8463327E+01  9.4483986E+00
 1.8486078E+01  9.1699152E+00
 1.8508831E+01  8.7458515E+00
 1.8531584E+01  8.6388950E+00
 1.8554335E+01  8.5886469E+00
 1.8577087E+01  8.3591757E+00
 1.8599838E+01  8.1027946E+00
 1.8622591E+01  7.9069901E+00
 1.8645344E+01  7.9192257E+00
 1.8668095E+01  7.8510742E+00
 1.8690847E+01  7.9369988E+00
 1.8713600E+01  7.8430800E+00
 1.8736351E+01  7.8410172E+00
 1.8759104E+01  7.8393931E+00
 1.8781857E+01  7.7396679E+00
 1.8804607E+01  7.7217698E+00
 1.8827360E+01  7.6445556E+00
 1.8850113E+01  7.7154951E+00
 1.8872864E+01  7.6437702E+00
 1.8895617E+01  7.7673450E+00
 1.8918369E+01  7.6997895E+00
 1.8941120E+01  7.6689172E+00
 1.8963873E+01  7.5223708E+00
 1.8986626E+01  7.6178131E+00
 1.9009377E+01  7.5995965E+00
 1.9032129E+01  7.6555190E+00
 1.9054882E+01  7.7332625E+00
 1.9077633E+01  7.8435225E+00
 1.9100386E+01  7.9498549E+00
 1.9123137E+01  8.1957550E+00
 1.9145889E+01  8.2682667E+00
 1.9168642E+01  8.2987251E+00
 1.9191393E+01  8.3991795E+00
 1.9214146E+01  8.5557728E+00
 1.9236898E+01  8.4864397E+00
 1.9259649E+01  8.0565729E+00
 1.9282402E+01  7.7240906E+00
 1.9305155E+01  7.5310521E+00
 1.9327906E+01  7.5036268E+00
 1.9350658E+01  7.4178815E+00
 1.9373411E+01  7.3944912E+00
 1.9396162E+01  7.3052063E+00
 1.9418915E+01  7.3522000E+00
 1.9441668E+01  7.2872429E+00
 1.9464418E+01  7.2998548E+00
 1.9487171E+01  7.3646393E+00
 1.9509924E+01  7.5286164E+00
 1.9532675E+01  7.7728162E+00
 1.9555428E+01  7.7299752E+00
 1.9578180E+01  7.5818038E+00
 1.9600931E+01  7.3884435E+00
 1.9623684E+01  7.2594266E+00
 1.9646435E+01  7.2158985E+00
 1.9669188E+01  7.1943398E+00
 1.9691940E+01  7.1092877E+00
 1.9714691E+01  7.1415977E+00
 1.9737444E+01  7.1141052E+00
 1.9760197E+01  7.3018985E+00
 1.9782948E+01  7.4618573E+00
 1.9805700E+01  7.6777287E+00
 1.9828453E+01  7.3725958E+00
 1.9851204E+01  7.1746421E+00
 1.9873957E+01  7.1238122E+00
 1.9896709E+01  7.0646386E+00
 1.9919460E+01  6.9716024E+00
 1.9942213E+01  6.9326568E+00
 1.9964966E+01  6.9940276E+00
 1.9987717E+01  6.8954663E+00
 2.0010469E+01  6.8711634E+00
 2.0033222E+01  6.9273739E+00
 2.0055973E+01  6.9429688E+00
 2.0078726E+01  6.8926382E+00
 2.0101477E+01  6.8452282E+00
 2.0124229E+01  6.8940411E+00
 2.0146982E+01  6.9362836E+00
 2.0169733E+01  6.9465203E+00
 2.0192486E+01  6.8677926E+00
 2.0215239E+01  6.8649402E+00
 2.0237989E+01  6.8670025E+00
 2.0260742E+01  6.7324815E+00
 2.0283495E+01  6.9206018E+00
 2.0306246E+01  6.8422427E+00
 2.0328999E+01  6.8599172E+00
 2.0351751E+01  6.8569107E+00
 2.0374502E+01  6.9498773E+00
 2.0397255E+01  7.3402243E+00
 2.0420008E+01  7.6512704E+00
 2.0442759E+01  7.8029647E+00
 2.0465511E+01  7.4600563E+00
 2.0488264E+01  7.2697639E+00
 2.0511015E+01  7.2165527E+00
 2.0533768E+01  7.0475626E+00
 2.0556520E+01  6.8727517E+00
 2.0579271E+01  6.7627578E+00
 2.0602024E+01  6.7489142E+00
 2.0624775E+01  6.7006183E+00
 2.0647528E+01  6.6699557E+00
 2.0670280E+01  6.6518970E+00
 2.0693031E+01  6.5252385E+00
 2.0715784E+01  6.5100784E+00
 2.0738537E+01  6.6080675E+00
 2.0761288E+01  6.6543746E+00
 2.0784040E+01  6.7857890E+00
 2.0806793E+01  6.8348489E+00
 2.0829544E+01  6.8037295E+00
 2.0852297E+01  6.7245684E+00
 2.0875050E+01  6.6707840E+00
 2.0897800E+01  6.5467458E+00
 2.0920553E+01  6.5262361E+00
 2.0943306E+01  6.5229201E+00
 2.0966057E+01  6.4989715E+00
 2.0988810E+01  6.5424328E+00
 2.1011562E+01  6.7299080E+00
 2.1034313E+01  6.8611474E+00
 2.1057066E+01  6.9090528E+00
 2.1079817E+01  6.8537588E+00
 2.1102570E+01  6.7014413E+00
 2.1125322E+01  6.6076188E+00
 2.1148073E+01  6.5438137E+00
 2.1170826E+01  6.4773660E+00
 2.1193579E+01  6.3962183E+00
 2.1216330E+01  6.3310280E+00
 2.1239082E+01  6.3344922E+00
 2.1261835E+01  6.3383398E+00
 2.1284586E+01  6.3132596E+00
 2.1307339E+01  6.2714381E+00
 2.1330091E+01  6.1946411E+00
 2.1352842E+01  6.2468386E+00
 2.1375595E+01  6.2484050E+00
 2.1398348E+01  6.2724199E+00
 2.1421099E+01  6.2501354E+00
 2.1443851E+01  6.2885447E+00
 2.1466604E+01  6.1695137E+00
 2.1489355E+01  6.2030210E+00
 2.1512108E+01  6.1343355E+00
 2.1534861E+01  6.1338959E+00
 2.1557611E+01  6.0949860E+00
 2.1580364E+01  6.1125093E+00
 2.1603115E+01  6.1672888E+00
 2.1625868E+01  6.2757950E+00
 2.1648621E+01  6.2068200E+00
 2.1671371E+01  6.1706357E+00
 2.1694124E+01  6.1336789E+00
 2.1716877E+01  6.1342740E+00
 2.1739628E+01  6.1210227E+00
 2.1762381E+01  6.0882211E+00
 2.1785133E+01  6.0028391E+00
 2.1807884E+01  5.9485393E+00
 2.1830637E+01  5.9717240E+00
 2.1853390E+01  5.9379783E+00
 2.1876141E+01  5.8706479E+00
 2.1898893E+01  5.8791528E+00
 2.1921646E+01  5.8597736E+00
 2.1944397E+01  5.9071455E+00
 2.1967150E+01  6.0622830E+00
 2.1989902E+01  6.1733274E+00
 2.2012653E+01  6.1021824E+00
 2.2035406E+01  6.0720935E+00
 2.2058159E+01  5.8977795E+00
 2.2080910E+01  5.8723783E+00
 2.2103662E+01  5.7213893E+00
 2.2126413E+01  5.8202400E+00
 2.2149166E+01  5.9139409E+00
 2.2171919E+01  5.8615427E+00
 2.2194670E+01  5.9473791E+00
 2.2217422E+01  6.1034112E+00
 2.2240175E+01  6.0527992E+00
 2.2262926E+01  5.9131408E+00
 2.2285679E+01  5.7459512E+00
 2.2308432E+01  5.7699232E+00
 2.2331182E+01  5.7501640E+00
 2.2353935E+01  5.6533060E+00
 2.2376688E+01  5.6449475E+00
 2.2399439E+01  5.6240010E+00
 2.2422192E+01  5.6137342E+00
 2.2444944E+01  5.5812750E+00
 2.2467695E+01  5.5133357E+00
 2.2490448E+01  5.5752430E+00
 2.2513201E+01  5.6285048E+00
 2.2535952E+01  5.5705180E+00
 2.2558704E+01  5.6139588E+00
 2.2581455E+01  5.7216473E+00
 2.2604208E+01  5.5793176E+00
 2.2626961E+01  5.5575900E+00
 2.2649712E+01  5.5669565E+00
 2.2672464E+01  5.4744129E+00
 2.2695217E+01  5.4826984E+00
 2.2717968E+01  5.5017624E+00
 2.2740721E+01  5.4839458E+00
 2.2763474E+01  5.4956613E+00
 2.2786224E+01  5.5758996E+00
 2.2808977E+01  5.6192985E+00
 2.2831730E+01  5.6644711E+00
 2.2854481E+01  5.6839061E+00
 2.2877234E+01  5.6607180E+00
 2.2899986E+01  5.5588155E+00
 2.2922737E+01  5.5361795E+00
 2.2945490E+01  5.4956188E+00
 2.2968243E+01  5.3995638E+00
 2.2990993E+01  5.3498740E+00
 2.3013746E+01  5.4170370E+00
 2.3036499E+01  5.2953033E+00
 2.3059250E+01  5.3161144E+00
 2.3082003E+01  5.3470426E+00
 2.3104753E+01  5.4043217E+00
 2.3127506E+01  5.4615650E+00
 2.3150259E+01  5.3982997E+00
 2.3173010E+01  5.3578243E+00
 2.3195763E+01  5.3501420E+00
 2.3218515E+01  5.2996869E+00
 2.3241266E+01  5.2721395E+00
 2.3264019E+01  5.2881994E+00
 2.3286772E+01  5.3988538E+00
 2.3309523E+01  5.4063568E+00
 2.3332275E+01  5.5260158E+00
 2.3355028E+01  5.5212584E+00
 2.3377779E+01  5.4719930E+00
 2.3400532E+01  5.3595514E+00
 2.3423285E+01  5.2889681E+00
 2.3446035E+01  5.2779126E+00
 2.3468788E+01  5.1438212E+00
 2.3491541E+01  5.2050843E+00
 2.3514292E+01  5.1142669E+00
 2.3537045E+01  5.1458755E+00
 2.3559795E+01  5.1257763E+00
 2.3582548E+01  5.1894035E+00
 2.3605301E+01  5.1503482E+00
 2.3628052E+01  5.1258311E+00
 2.3650805E+01  5.0311995E+00
 2.3673557E+01  5.0334916E+00
 2.3696308E+01  5.0554543E+00
 2.3719061E+01  4.9539213E+00
 2.3741814E+01  4.9861622E+00
 2.3764565E+01  5.0035405E+00
 2.3787317E+01  5.1148057E+00
 2.3810070E+01  5.0703182E+00
 2.3832821E+01  5.0978727E+00
 2.3855574E+01  5.1614318E+00
 2.3878326E+01  5.1845779E+00
 2.3901077E+01  5.1834183E+00
 2.3923830E+01  5.1812983E+00
 2.3946583E+01  5.0437489E+00
 2.3969334E+01  5.0869184E+00
 2.3992086E+01  4.9894733E+00
 2.4014839E+01  4.9210367E+00
 2.4037590E+01  4.8863668E+00
 2.4060343E+01  4.8594809E+00
 2.4083094E+01  4.8397102E+00
 2.4105846E+01  4.8667998E+00
 2.4128599E+01  4.8680434E+00
 2.4151350E+01  4.8148961E+00
 2.4174103E+01  4.8333712E+00
 2.4196856E+01  4.8280563E+00
 2.4219606E+01  4.9120784E+00
 2.4242359E+01  4.8777642E+00
 2.4265112E+01  4.8270736E+00
 2.4287863E+01  4.7794251E+00
 2.4310616E+01  4.7270694E+00
 2.4333368E+01  4.7441578E+00
 2.4356119E+01  4.7398415E+00
 2.4378872E+01  4.6714444E+00
 2.4401625E+01  4.7436409E+00
 2.4424376E+01  4.7529140E+00
 2.4447128E+01  4.7757502E+00
 2.4469881E+01  4.6904631E+00
 2.4492632E+01  4.5654850E+00
 2.4515385E+01  4.6152453E+00
 2.4538136E+01  4.6103439E+00
 2.4560888E+01  4.7004805E+00
 2.4583641E+01  4.6527138E+00
 2.4606392E+01  4.6392722E+00
 2.4629145E+01  4.5793738E+00
 2.4651897E+01  4.5651984E+00
 2.4674648E+01  4.5171528E+00
 2.4697401E+01  4.5297503E+00
 2.4720154E+01  4.6138682E+00
 2.4742905E+01  4.6044340E+00
 2.4765657E+01  4.5628843E+00
 2.4788410E+01  4.4913735E+00
 2.4811161E+01  4.5332541E+00
 2.4833914E+01  4.5184546E+00
 2.4856667E+01  4.5228381E+00
 2.4879417E+01  4.5617881E+00
 2.4902170E+01  4.5808449E+00
 2.4924923E+01  4.5910807E+00
 2.4947674E+01  4.5397797E+00
 2.4970427E+01  4.4635782E+00
 2.4993179E+01  4.4945841E+00
 2.5015930E+01  4.4992652E+00
 2.5038683E+01  4.3718724E+00
 2.5061434E+01  4.4808087E+00
 2.5084187E+01  4.4592948E+00
 2.5106939E+01  4.4472718E+00
 2.5129690E+01  4.3592863E+00
 2.5152443E+01  4.3255682E+00
 2.5175196E+01  4.3372788E+00
 2.5197947E+01  4.4256825E+00
 2.5220699E+01  4.3919234E+00
 2.5243452E+01  4.4387698E+00
 2.5266203E+01  4.4870224E+00
 2.5288956E+01  4.3571219E+00
 2.5311708E+01  4.3683052E+00
 2.5334459E+01  4.3333831E+00
 2.5357212E+01  4.2834439E+00
 2.5379965E+01  4.2619429E+00
 2.5402716E+01  4.3300853E+00
 2.5425468E+01  4.3539257E+00
 2.5448221E+01  4.3166723E+00
 2.5470972E+01  4.3403010E+00
 2.5493725E+01  4.3140855E+00
 2.5516478E+01  4.1733966E+00
 2.5539228E+01  4.1864161E+00
 2.5561981E+01  4.2097349E+00
 2.5584732E+01  4.1787963E+00
 2.5607485E+01  4.2417054E+00
 2.5630238E+01  4.2290378E+00
 2.5652988E+01  4.1623049E+00
 2.5675741E+01  4.1772938E+00
 2.5698494E+01  4.1574407E+00
 2.5721245E+01  4.1063681E+00
 2.5743998E+01  4.1211605E+00
 2.5766750E+01  4.1489606E+00
 2.5789501E+01  4.1140108E+00
 2.5812254E+01  4.0691366E+00
 2.5835007E+01  4.1371770E+00
 2.5857758E+01  4.1673188E+00
 2.5880510E+01  4.1730981E+00
 2.5903263E+01  4.1066375E+00
 2.5926014E+01  4.0319529E+00
 2.5948767E+01  4.0923948E+00
 2.5971519E+01  4.0332432E+00
 2.5994270E+01  4.1344833E+00
 2.6017023E+01  4.0998464E+00
 2.6039774E+01  4.0209303E+00
 2.6062527E+01  4.0189714E+00
 2.6085279E+01  4.0537934E+00
 2.6108030E+01  3.9591899E+00
 2.6130783E+01  4.0275030E+00
 2.6153536E+01  3.9192128E+00
 2.6176287E+01  3.9384434E+00
 2.6199039E+01  3.9657898E+00
 2.6221792E+01  4.0305586E+00
 2.6244543E+01  3.9423468E+00
 2.6267296E+01  3.9392886E+00
 2.6290049E+01  3.9758909E+00
 2.6312799E+01  3.8941116E+00
 2.6335552E+01  3.8542597E+00
 2.6358305E+01  3.8679690E+00
 2.6381056E+01  3.8928089E+00
 2.6403809E+01  3.9016807E+00
 2.6426561E+01  3.8469975E+00
 2.6449312E+01  3.9182403E+00
 2.6472065E+01  3.9093933E+00
 2.6494818E+01  3.8907943E+00
 2.6517569E+01  3.8991294E+00
 2.6540321E+01  3.7838717E+00
 2.6563072E+01  3.7566495E+00
 2.6585825E+01  3.8309016E+00
 2.6608578E+01  3.7277796E+00
 2.6631329E+01  3.7018514E+00
 2.6654081E+01  3.7812629E+00
 2.6676834E+01  3.7114508E+00
 2.6699585E+01  3.7704604E+00
 2.6722338E+01  3.7562747E+00
 2.6745090E+01  3.7209117E+00
 2.6767841E+01  3.7364252E+00
 2.6790594E+01  3.7445905E+00
 2.6813347E+01  3.7005084E+00
 2.6836098E+01  3.7629275E+00
 2.6858850E+01  3.7184958E+00
 2.6881603E+01  3.7281330E+00
 2.6904354E+01  3.7239347E+00
 2.6927107E+01  3.6904922E+00
 2.6949860E+01  3.6673787E+00
 2.6972610E+01  3.6360788E+00
 2.6995363E+01  3.6314757E+00
 2.7018114E+01  3.6268609E+00
 2.7040867E+01  3.6232581E+00
 2.7063620E+01  3.5927730E+00
 2.7086370E+01  3.5681236E+00
 2.7109123E+01  3.5556238E+00
 2.7131876E+01  3.5612793E+00
 2.7154627E+01  3.6009924E+00
 2.7177380E+01  3.6035981E+00
 2.7200132E+01  3.6207538E+00
 2.7222883E+01  3.6237409E+00
 2.7245636E+01  3.5436006E+00
 2.7268389E+01  3.5484622E+00
 2.7291140E+01  3.5752637E+00
 2.7313892E+01  3.5257282E+00
 2.7336645E+01  3.4768579E+00
 2.7359396E+01  3.5711510E+00
 2.7382149E+01  3.5613873E+00
 2.7404902E+01  3.5780680E+00
 2.7427652E+01  3.5402958E+00
 2.7450405E+01  3.4489713E+00
 2.7473158E+01  3.4524674E+00
 2.7495909E+01  3.5287521E+00
 2.7518661E+01  3.4314613E+00
 2.7541412E+01  3.4934955E+00
 2.7564165E+01  3.4443033E+00
 2.7586918E+01  3.5434833E+00
 2.7609669E+01  3.3995333E+00
 2.7632421E+01  3.3799000E+00
 2.7655174E+01  3.3832037E+00
 2.7677925E+01  3.3481386E+00
 2.7700678E+01  3.3596885E+00
 2.7723431E+01  3.4077265E+00
 2.7746181E+01  3.4076312E+00
 2.7768934E+01  3.2662568E+00
 2.7791687E+01  3.3075986E+00
 2.7814438E+01  3.4007728E+00
 2.7837191E+01  3.4148793E+00
 2.7859943E+01  3.3878968E+00
 2.7882694E+01  3.3342414E+00
 2.7905447E+01  3.2926188E+00
 2.7928200E+01  3.3072670E+00
 2.7950951E+01  3.3859200E+00
 2.7973703E+01  3.2415848E+00
 2.7996456E+01  3.1772673E+00
 2.8019207E+01  3.3123138E+00
 2.8041960E+01  3.3587587E+00
 2.8064711E+01  3.2509604E+00
 2.8087463E+01  3.3307652E+00
 2.8110216E+01  3.2343776E+00
 2.8132967E+01  3.2551310E+00
 2.8155720E+01  3.3293641E+00
 2.8178473E+01  3.2257657E+00
 2.8201223E+01  3.1922507E+00
 2.8223976E+01  3.2084174E+00
 2.8246729E+01  3.2468808E+00
 2.8269480E+01  3.2557337E+00
 2.8292233E+01  3.1372573E+00
 2.8314985E+01  3.2297678E+00
 2.8337736E+01  3.1815591E+00
 2.8360489E+01  3.0703361E+00
 2.8383242E+01  3.3285232E+00
 2.8405993E+01  3.1638522E+00
 2.8428745E+01  3.0940895E+00
 2.8451498E+01  3.1868708E+00
 2.8474249E+01  3.1341219E+00
 2.8497002E+01  3.2152464E+00
 2.8519753E+01  3.1669819E+00
 2.8542505E+01  3.1613762E+00
 2.8565258E+01  3.0868957E+00
 2.8588009E+01  3.0921922E+00
 2.8610762E+01  3.1317444E+00
 2.8633514E+01  3.1787515E+00
 2.8656265E+01  3.0104520E+00
 2.8679018E+01  3.0195072E+00
 2.8701771E+01  3.0254886E+00
 2.8724522E+01  3.0283835E+00
 2.8747274E+01  3.0646186E+00
 2.8770027E+01  3.0576956E+00
 2.8792778E+01  3.0146172E+00
 2.8815531E+01  3.1651311E+00
 2.8838284E+01  3.0047743E+00
 2.8861034E+01  2.9148035E+00
 2.8883787E+01  2.9083836E+00
 2.8906540E+01  2.9047422E+00
 2.8929291E+01  2.8798444E+00
 2.8952044E+01  3.0149443E+00
 2.8974796E+01  2.9518113E+00
 2.8997547E+01  2.8976676E+00
 2.9020300E+01  2.9859419E+00
 2.9043051E+01  3.0239441E+00
 2.9065804E+01  2.8659232E+00
 2.9088556E+01  2.8239214E+00
 2.9111307E+01  2.9003406E+00
 2.9134060E+01  2.9146748E+00
 2.9156813E+01  3.0007229E+00
 2.9179564E+01  3.0103621E+00
 2.9202316E+01  2.8779745E+00
 2.9225069E+01  2.8791006E+00
 2.9247820E+01  2.8061903E+00
 2.9270573E+01  2.8886831E+00
 2.9293325E+01  2.8983738E+00
 2.9316076E+01  2.7783370E+00
 2.9338829E+01  2.8742466E+00
 2.9361582E+01  2.8803363E+00
 2.9384333E+01  2.8396873E+00
 2.9407085E+01  2.7317269E+00
 2.9429838E+01  2.8408127E+00
 2.9452589E+01  2.7391658E+00
 2.9475342E+01  2.6156723E+00
 2.9498093E+01  2.8138480E+00
 2.9520845E+01  2.8196576E+00
 2.9543598E+01  2.8688350E+00
 2.9566349E+01  2.7356687E+00
 2.9589102E+01  2.7230279E+00
 2.9611855E+01  2.5824230E+00
 2.9634605E+01  2.7752252E+00
 2.9657358E+01  2.7334149E+00
 2.9680111E+01  2.8247023E+00
 2.9702862E+01  2.8090382E+00
 2.9725615E+01  2.6928878E+00
 2.9748367E+01  2.6939793E+00
 2.9771118E+01  2.6680105E+00
 2.9793871E+01  2.7250786E+00
 2.9816624E+01  2.7100306E+00
 2.9839375E+01  2.6370425E+00
 2.9862127E+01  2.6185462E+00
 2.9884880E+01  2.6325161E+00
 2.9907631E+01  2.5487034E+00
 2.9930384E+01  2.6648626E+00
 2.9953136E+01  2.5527580E+00
 2.9975887E+01  2.5858080E+00
 2.9998640E+01  2.7082300E+00
 3.0021391E+01  2.5911298E+00
 3.0044144E+01  2.7403982E+00
 3.0066896E+01  2.6097052E+00
 3.0089647E+01  2.6138337E+00
 3.0112400E+01  2.5172169E+00
 3.0135153E+01  2.5453069E+00
 3.0157904E+01  2.5862796E+00
 3.0180656E+01  2.4927931E+00
 3.0203409E+01  2.4119625E+00
 3.0226160E+01  2.5847688E+00
 3.0248913E+01  2.5759714E+00
 3.0271666E+01  2.5928371E+00
 3.0294416E+01  2.5528610E+00
 3.0317169E+01  2.6196022E+00
 3.0339922E+01  2.5521128E+00
 3.0362673E+01  2.5457950E+00
 3.0385426E+01  2.4601321E+00
 3.0408178E+01  2.5168495E+00
 3.0430929E+01  2.5784314E+00
 3.0453682E+01  2.4981799E+00
 3.0476435E+01  2.4800401E+00
 3.0499186E+01  2.4712336E+00
 3.0521938E+01  2.4168038E+00
 3.0544689E+01  2.3461127E+00
 3.0567442E+01  2.5254033E+00
 3.0590195E+01  2.5821793E+00
 3.0612946E+01  2.3108327E+00
 3.0635698E+01  2.3669391E+00
 3.0658451E+01  2.3132806E+00
 3.0681202E+01  2.6945078E+00
 3.0703955E+01  2.5784054E+00
 3.0726707E+01  2.3774614E+00
 3.0749458E+01  2.2939374E+00
 3.0772211E+01  2.2280488E+00
 3.0794964E+01  2.5398889E+00
 3.0817715E+01  2.3924613E+00
 3.0840467E+01  2.4193509E+00
 3.0863220E+01  2.3689845E+00
 3.0885971E+01  2.4729760E+00
 3.0908724E+01  2.3650088E+00
 3.0931477E+01  2.3065228E+00
 3.0954227E+01  2.2630754E+00
 3.0976980E+01  2.3831556E+00
 3.0999731E+01  2.3277304E+00
 3.1022484E+01  2.2563672E+00
 3.1045237E+01  2.2298613E+00
 3.1067987E+01  2.3999171E+00
 3.1090740E+01  2.4495251E+00
 3.1113493E+01  2.4614549E+00
 3.1136244E+01  2.3378277E+00
 3.1158997E+01  2.3439236E+00
 3.1181749E+01  2.2803209E+00
 3.1204500E+01  2.3395638E+00
 3.1227253E+01  2.2024055E+00
 3.1250006E+01  2.3668716E+00
 3.1272757E+01  2.3544786E+00
 3.1295509E+01  2.1504469E+00
 3.1318262E+01  2.2179735E+00
 3.1341013E+01  2.1550565E+00
 3.1363766E+01  2.3116722E+00
 3.1386518E+01  2.0510452E+00
 3.1409269E+01  1.9900756E+00
 3.1432022E+01  2.1619852E+00
 3.1454775E+01  2.0934160E+00
 3.1477526E+01  2.1887968E+00
 3.1500278E+01  2.1061449E+00
 3.1523029E+01  2.0535655E+00
 3.1545782E+01  2.2967074E+00
 3.1568535E+01  2.1803191E+00
 3.1591286E+01  2.1767335E+00
 3.1614038E+01  2.2184367E+00
 3.1636791E+01  2.1614244E+00
 3.1659542E+01  1.9349328E+00
 3.1682295E+01  2.0832603E+00
 3.1705048E+01  2.0834973E+00
 3.1727798E+01  2.2219458E+00
 3.1750551E+01  2.0831935E+00
 3.1773304E+01  1.8706316E+00
 3.1796055E+01  2.1365817E+00
 3.1818808E+01  2.0193450E+00
 3.1841560E+01  2.1755154E+00
 3.1864311E+01  2.1511707E+00
 3.1887064E+01  2.1635785E+00
 3.1909817E+01  1.9272127E+00
 3.1932568E+01  2.1168838E+00
 3.1955320E+01  2.1430411E+00
 3.1978071E+01  2.0617232E+00
 3.2000824E+01  2.0432479E+00
 3.2023575E+01  2.1497972E+00
 3.2046329E+01  2.0311720E+00
 3.2069080E+01  2.0705764E+00
 3.2091831E+01  2.0514176E+00
 3.2114586E+01  2.1081462E+00
 3.2137337E+01  2.1068575E+00
 3.2160088E+01  2.3067162E+00
 3.2182842E+01  2.3381867E+00
 3.2205593E+01  1.7716049E+00
 3.2228344E+01  2.2215512E+00
 3.2251099E+01  1.9551007E+00
 3.2273849E+01  2.0557661E+00
 3.2296600E+01  1.7300149E+00
 3.2319355E+01  1.8096534E+00
 3.2342106E+01  1.7730638E+00
 3.2364857E+01  2.0910640E+00
 3.2387611E+01  2.0834236E+00
 3.2410362E+01  1.9165982E+00
 3.2433113E+01  1.3592970E+00
 3.2455868E+01  2.0567296E+00
 3.2478619E+01  1.6619947E+00
 3.2501369E+01  1.7284606E+00
 3.2524124E+01  1.9052266E+00
 3.2546875E+01  1.9351543E+00
 3.2569626E+01  1.7965199E+00
 3.2592381E+01  2.1956983E+00
 3.2615131E+01  2.0310223E+00
 3.2637882E+01  1.8104156E+00
 3.2660637E+01  2.1193824E+00
 3.2683388E+01  1.9338539E+00
 3.2706139E+01  1.8847407E+00
 3.2728889E+01  1.8780028E+00
 3.2751644E+01  1.7830123E+00
 3.2774395E+01  2.0989954E+00
 3.2797146E+01  1.8938133E+00
 3.2819901E+01  1.7779044E+00
 3.2842651E+01  1.9288157E+00
 3.2865402E+01  1.7033383E+00
 3.2888157E+01  1.5756804E+00
 3.2910908E+01  2.1163077E+00
 3.2933659E+01  1.2993035E+00
 3.2956413E+01  1.3249937E+00
 3.2979164E+01  9.3425864E-01
 3.3001915E+01  1.1985260E+00
 3.3024670E+01  1.7414294E+00
 3.3047421E+01  1.2184768E+00
 3.3070171E+01  1.4291514E+00
 3.3092926E+01  2.9858866E+00
 3.3115677E+01  2.0957813E+00
 3.3138428E+01  1.1865829E+00
 3.3161182E+01  1.3127931E+00
 3.3183933E+01 -1.6213003E+00
 3.3206684E+01  0.0000000E+00
 3.3229439E+01  0.0000000E+00
 3.3252190E+01  0.0000000E+00
 3.3274940E+01  0.0000000E+00
 3.3297695E+01  0.0000000E+00
 3.3320446E+01  0.0000000E+00
 3.3343197E+01  0.0000000E+00
 3.3365952E+01  0.0000000E+00
 3.3388702E+01  0.0000000E+00
 3.3411453E+01  0.0000000E+00
 3.3434208E+01  0.0000000E+00
 3.3456959E+01  0.0000000E+00
 3.3479710E+01  0.0000000E+00
 3.3502464E+01  0.0000000E+00
 3.3525215E+01  0.0000000E+00
 3.3547966E+01  0.0000000E+00
 3.3570721E+01  0.0000000E+00
 3.3593472E+01  0.0000000E+00
 3.3616222E+01  0.0000000E+00
 3.3638977E+01  0.0000000E+00
 3.3661728E+01  0.0000000E+00
